
                     ----------Merging statistics----------                    

Resolution: 37.15 - 1.51
Observations: 604593
Unique reflections: 49176
Redundancy: 12.3
Completeness: 100.00%
Mean intensity: 3996.8
Mean I/sigma(I): 19.0
R-merge: 0.053
R-meas:  0.055
R-pim:   0.016

Redundancies (non-anomalous):
  1 : 14
  2 : 86
  3 : 103
  4 : 286
  5 : 612
  6 : 1251
  7 : 2031
  8 : 2226
  9 : 1045
  10 : 2245
  11 : 4146
  12 : 6891
  13 : 9156
  14 : 8867
  15 : 6428
  16 : 3789

  Statistics by resolution bin:
 d_max  d_min   #obs  #uniq   mult.  %comp       <I>  <I/sI>    r_mrg   r_meas    r_pim   cc1/2   cc_ano
 37.16   4.10  30765   2720   11.31 100.00   31213.2    53.7    0.035    0.037    0.011   0.999  -0.342
  4.10   3.25  30271   2538   11.93 100.00   21254.4    53.4    0.042    0.044    0.012   0.999  -0.220
  3.25   2.84  27572   2514   10.97 100.00    8839.8    44.9    0.049    0.052    0.015   0.998  -0.113
  2.84   2.58  30363   2493   12.18 100.00    4240.1    39.7    0.056    0.058    0.016   0.999  -0.238
  2.58   2.40  31921   2476   12.89 100.00    3024.4    36.2    0.059    0.062    0.017   0.999  -0.129
  2.40   2.26  30880   2457   12.57  99.96    2102.7    30.2    0.070    0.073    0.021   0.999  -0.146
  2.26   2.14  27859   2459   11.33 100.00    1580.0    24.6    0.084    0.088    0.026   0.998  -0.062
  2.14   2.05  29592   2461   12.02  99.92    1115.7    20.9    0.104    0.109    0.031   0.997  -0.124
  2.05   1.97  31813   2444   13.02 100.00     728.4    16.8    0.131    0.137    0.038   0.997  -0.126
  1.97   1.90  29653   2419   12.26  99.59     491.7    12.6    0.198    0.206    0.059   0.992  -0.111
  1.90   1.84  31722   2430   13.05  99.84     315.6     9.6    0.250    0.261    0.072   0.989  -0.033
  1.84   1.79  30325   2443   12.41 100.00     219.3     7.4    0.295    0.308    0.087   0.985  -0.090
  1.79   1.74  29210   2438   11.98 100.00     139.9     5.1    0.424    0.443    0.127   0.966  -0.068
  1.74   1.70  30290   2415   12.54  99.96     109.7     4.2    0.573    0.598    0.168   0.954  -0.032
  1.70   1.66  30896   2402   12.86 100.00      77.6     3.1    0.719    0.749    0.208   0.933  -0.037
  1.66   1.63  31770   2437   13.04  99.88      67.1     2.8    0.820    0.853    0.235   0.906  -0.024
  1.63   1.59  31588   2409   13.11 100.00      53.8     2.2    1.083    1.127    0.310   0.842  -0.052
  1.59   1.56  31883   2435   13.09 100.00      43.4     1.7    1.345    1.400    0.385   0.816  -0.006
  1.56   1.54  29170   2409   12.11  99.96      38.5     1.5    1.505    1.571    0.449   0.764  -0.022
  1.54   1.51  27050   2377   11.38  99.71      28.6     1.0    2.466    2.584    0.764   0.559   0.018
 37.15   1.51 604593  49176   12.29 100.00    3996.8    19.0    0.053    0.055    0.016   0.999  -0.314
